%t [h]	c [ppm]	cb [ppm]
0	12.01	11.34
1	12.32	11.80
2	12.68	12.29
3	13.14	35.53
4	13.75	48.53
5	14.44	41.02
6	14.95	30.75
7	14.90	20.24
8	14.82	14.85
9	14.76	13.75
10	14.51	13.25
11	14.23	12.02
12	14.01	11.12
13	13.54	10.81
14	13.02	10.67
15	12.49	10.85
16	12.01	11.15
17	11.66	11.63
18	11.21	12.03
19	10.99	12.59
20	10.88	13.01
21	10.94	12.73
22	11.03	12.54
23	11.29	12.23
24	11.67	11.93